#Energy[keV] Response[keV]
1 0.9999999999901769
2 1.9999065390955555
3 2.9991909212667087
4 3.9981893048726955
5 4.997750152234319
6 5.997441739506779
7 6.996798094544086
8 7.996744967745026
9 8.997018259886039
10 9.99652221466741
11 10.995757611821231
12 11.995757921893913
13 12.994451590793695
14 13.991843320875708
15 14.985789086911023
16 15.967292708302331
17 16.92201694898794
18 17.83011392042093
19 18.66511173479085
20 19.411780634061447
21 20.03075857192263
22 20.559062828502718
23 20.930157930195435
24 21.17071106443409
25 21.322338283015814
26 21.361693124668022
27 21.30392686838627
28 21.155819293701693
29 20.914146789476153
30 20.598624099293467
31 20.263878169477405
32 19.89878394624588
33 19.478671039694774
34 19.082138501520486
35 18.562436882575234
36 18.1630354087141
37 17.682215763344093
38 17.23037210923037
39 16.76418616635072
40 16.27105257223085
41 15.848265391577636
42 15.439752829537301
43 14.948343632964473
44 14.536387482472657
45 14.116358415802065
46 13.711648977936468
47 13.372127009413914
48 12.899225456138508
49 12.572506077865839
50 12.263608958133519
51 38.89457174384307
52 38.88306518508115
53 38.73170754144658
54 38.58415062599563
55 38.434144593627884
56 38.129801441717575
57 37.80290132423789
58 37.53410375748268
59 37.199678784967155
60 36.82777771690099
61 36.47608886903674
62 36.07335704839769
63 35.62399401118294
64 35.24511592968632
65 34.811354325573944
66 34.41958482626337
67 34.01944362947294
68 33.4905801738905
69 33.144331876599786
70 32.679219915729156
71 32.23111039152349
72 31.787518963340364
73 31.382858768040464
74 30.814216776654234
75 30.458529079999177
76 30.059194408316703
77 29.58461145463922
78 29.19537844868171
79 28.797130143153076
80 28.366711442655717
81 27.914343992810764
82 27.628294210033562
83 27.163187725851294
84 26.64783398507857
85 26.381448586306085
86 25.977238762858285
87 25.611638213543255
88 25.307133222506334
89 24.804530087447688
90 24.453557690805464
91 24.046076976373346
92 23.743958584597806
93 23.550304588738406
94 23.171571110349834
95 22.74174203943698
96 22.54239947439173
97 22.14894822370248
98 21.90569966276745
99 21.598011083081005
100 21.24147148476125
101 20.9754980062636
102 20.6916958635707
103 20.26433691658133
104 20.07119044446632
105 19.864575077826974
106 19.640982161070323
107 19.386434568301212
108 19.08032648514689
109 18.63927396439918
110 18.600285422121303
111 18.28762009715458
112 18.095431590741423
113 17.795043157222608
114 17.64628167256288
115 17.31394828298033
116 17.1331211304988
117 17.033579241781155
118 16.700851892476482
119 16.54932828396818
120 16.370906699970188
121 16.152471093016263
122 15.882580485496431
123 15.681926812296902
124 15.459879021746296
125 15.366724056588383
126 15.078183488115746
127 14.956989237738926
128 14.659923780885437
129 14.502075197256127
130 14.345529461261872
131 14.169570392213755
132 14.074758905058486
133 13.840494296422857
134 13.758396962717685
135 13.545247637230549
136 13.3585409445036
137 13.143276896990926
138 13.093741785443278
139 12.937697207286968
140 12.814456937971885
141 12.587332574271073
142 12.390413281039308
143 12.315187275495676
144 12.131528768541878
145 12.090042823461683
146 11.952084218238767
147 11.888072714251024
148 11.622243761338382
149 11.499871363986351
150 11.343663448465895
151 11.28585321454703
152 11.128634556673761
153 10.977915886054108
154 10.890992590129294
155 10.660163994471429
156 10.634083448987612
157 10.543349083134826
158 10.491345570544752
159 10.297749919038145
160 10.099157365251656
161 10.169775881440565
162 10.012776809509022
163 9.900072388579394
164 9.702304507109652
165 9.665941893238701
166 9.561595682638853
167 9.490545467099713
168 9.486775006587713
169 9.268336140137677
170 9.08991656647375
171 9.131176323257483
172 9.035945176985377
173 8.987985794087352
174 8.827084047406782
175 8.779931945926451
176 8.69329558037619
177 8.588815947960198
178 8.595949301029151
179 8.263689908873019
180 8.316753125004787
181 8.28648768258786
182 8.12950588901511
183 8.102431954479968
184 8.175580879427791
185 8.085051643389136
186 7.901849757289725
187 7.82326177831699
188 7.74980635169489
189 7.644534676889624
190 7.617850540688579
191 7.553257377460989
192 7.463168897732956
193 7.42981463675398
194 7.274236656682023
195 7.301507793170412
196 7.219153885989698
197 7.1638756126406955
198 7.148268966114946
199 6.9917126378212116
200 6.952183118578392
201 6.8941056939038825
202 6.875262280457703
203 6.847137259643054
204 6.727063460317932
205 6.721533685187756
206 6.6705392372526635
207 6.561097018424344
208 6.597093927061463
209 6.6141106601222255
210 6.581515978066695
211 6.540975766994424
212 6.411443489748698
213 6.395458750163561
214 6.4612368253263455
215 6.427005817730476
216 6.332961229917066
217 6.267994361587664
218 6.2446879627209695
219 6.126936181054699
220 6.093902937179792
221 6.101581945185594
222 6.11205817703888
223 5.991880708586904
224 5.989829663422486
225 5.952435859534327
226 5.921607723260682
227 5.85464667066373
228 5.761892932746278
229 5.742870232621604
230 5.684818936080489
231 5.750449736377649
232 5.568547662973812
233 5.590329054027315
234 5.703357495612119
235 5.554837240793714
236 5.639648741226994
237 5.438874834132468
238 5.442184747435331
239 5.43600544878936
240 5.395826042136965
241 5.3515991277264705
242 5.252305456633445
243 5.2776056004178065
244 5.212579131223106
245 5.088998460914595
246 5.1520537664032355
247 5.147809140937796
248 5.028491536808819
249 4.973154508635509
250 5.0465370082817795
251 4.967958332256038
252 4.946830659218935
253 4.941362834814798
254 4.931928452348841
255 4.845088319832415
256 4.7808972353948045
257 4.658665202719724
258 4.7799039269280685
259 4.664682548604909
260 4.771517624249705
261 4.650987613795351
262 4.684900914023526
263 4.636492476623148
264 4.606221534172032
265 4.497338881245815
266 4.52651861043186
267 4.529239853002022
268 4.431756169037546
269 4.331413624131273
270 4.351018392088993
271 4.329807089669788
272 4.337994278176014
273 4.250131389408297
274 4.154981054002518
275 4.1359652915289065
276 4.1430844622473835
277 4.100100115063857
278 4.083563562571336
279 4.084804287379761
280 4.039972329403342
281 4.036250013357472
282 3.950264345420292
283 3.927114564585581
284 3.944725549176001
285 3.9422052296574743
286 3.95677057036483
287 3.908575260130681
288 3.8811400483619027
289 3.8332317336901043
290 3.9205544359693714
291 3.8189697085173644
292 3.7796517038315325
293 3.7914686804060596
294 3.72363849239265
295 3.873667829063169
296 3.8089341108836705
297 3.757922445317615
298 3.7256836955958534
299 3.744542669858617
